# Pulseq sequence file
# Created by PyPulseq

[VERSION]
major 1
minor 4
revision 2

[DEFINITIONS]
AdcRasterTime 1e-07 
BlockDurationRaster 1e-05 
FOV 0.25 0.25 0.006 
GradientRasterTime 1e-05 
RadiofrequencyRasterTime 1e-06 
SliceGap 0 
SlicePositions 0 
SliceThickness 0.006 

# Format of blocks:
# NUM DUR RF  GX  GY  GZ  ADC  EXT
[BLOCKS]
   1 270   1   0   0   1  0  0
   2 299705   0   0   0   0  0  0
   3  25   0   0   0   2  0  0
   4 270   2   0   0   3  0  0
   5 255   0   5   0   4  0  0
   6 220   1   0   0   6  0  0
   7  69   0   8   9   7  0  0
   8 642   0  10   0   0  1  0
   9  69   0  12  13  11  0  0
  10 220   0   0   0   6  0  0
  11  69   0   0   0   7  0  0
  12 148186   0   0   0   0  0  0
  13 270   1   0   0   1  0  0
  14 299705   0   0   0   0  0  0
  15  25   0   0   0   2  0  0
  16 270   2   0   0   3  0  0
  17 255   0   5   0   4  0  0
  18 220   1   0   0   6  0  0
  19  69   0   8  14   7  0  0
  20 642   0  10   0   0  1  0
  21  69   0  12  15  11  0  0
  22 220   0   0   0   6  0  0
  23  69   0   0   0   7  0  0
  24 148186   0   0   0   0  0  0
  25 270   1   0   0   1  0  0
  26 299705   0   0   0   0  0  0
  27  25   0   0   0   2  0  0
  28 270   2   0   0   3  0  0
  29 255   0   5   0   4  0  0
  30 220   1   0   0   6  0  0
  31  69   0   8  16   7  0  0
  32 642   0  10   0   0  1  0
  33  69   0  12  17  11  0  0
  34 220   0   0   0   6  0  0
  35  69   0   0   0   7  0  0
  36 148186   0   0   0   0  0  0
  37 270   1   0   0   1  0  0
  38 299705   0   0   0   0  0  0
  39  25   0   0   0   2  0  0
  40 270   2   0   0   3  0  0
  41 255   0   5   0   4  0  0
  42 220   1   0   0   6  0  0
  43  69   0   8  18   7  0  0
  44 642   0  10   0   0  1  0
  45  69   0  12  19  11  0  0
  46 220   0   0   0   6  0  0
  47  69   0   0   0   7  0  0
  48 148186   0   0   0   0  0  0
  49 270   1   0   0   1  0  0
  50 299705   0   0   0   0  0  0
  51  25   0   0   0   2  0  0
  52 270   2   0   0   3  0  0
  53 255   0   5   0   4  0  0
  54 220   1   0   0   6  0  0
  55  69   0   8  20   7  0  0
  56 642   0  10   0   0  1  0
  57  69   0  12  21  11  0  0
  58 220   0   0   0   6  0  0
  59  69   0   0   0   7  0  0
  60 148186   0   0   0   0  0  0
  61 270   1   0   0   1  0  0
  62 299705   0   0   0   0  0  0
  63  25   0   0   0   2  0  0
  64 270   2   0   0   3  0  0
  65 255   0   5   0   4  0  0
  66 220   1   0   0   6  0  0
  67  69   0   8  22   7  0  0
  68 642   0  10   0   0  1  0
  69  69   0  12  23  11  0  0
  70 220   0   0   0   6  0  0
  71  69   0   0   0   7  0  0
  72 148186   0   0   0   0  0  0
  73 270   1   0   0   1  0  0
  74 299705   0   0   0   0  0  0
  75  25   0   0   0   2  0  0
  76 270   2   0   0   3  0  0
  77 255   0   5   0   4  0  0
  78 220   1   0   0   6  0  0
  79  69   0   8  24   7  0  0
  80 642   0  10   0   0  1  0
  81  69   0  12  25  11  0  0
  82 220   0   0   0   6  0  0
  83  69   0   0   0   7  0  0
  84 148186   0   0   0   0  0  0
  85 270   1   0   0   1  0  0
  86 299705   0   0   0   0  0  0
  87  25   0   0   0   2  0  0
  88 270   2   0   0   3  0  0
  89 255   0   5   0   4  0  0
  90 220   1   0   0   6  0  0
  91  69   0   8  26   7  0  0
  92 642   0  10   0   0  1  0
  93  69   0  12  27  11  0  0
  94 220   0   0   0   6  0  0
  95  69   0   0   0   7  0  0
  96 148186   0   0   0   0  0  0
  97 270   1   0   0   1  0  0
  98 299705   0   0   0   0  0  0
  99  25   0   0   0   2  0  0
 100 270   2   0   0   3  0  0
 101 255   0   5   0   4  0  0
 102 220   1   0   0   6  0  0
 103  69   0   8  28   7  0  0
 104 642   0  10   0   0  1  0
 105  69   0  12  29  11  0  0
 106 220   0   0   0   6  0  0
 107  69   0   0   0   7  0  0
 108 148186   0   0   0   0  0  0
 109 270   1   0   0   1  0  0
 110 299705   0   0   0   0  0  0
 111  25   0   0   0   2  0  0
 112 270   2   0   0   3  0  0
 113 255   0   5   0   4  0  0
 114 220   1   0   0   6  0  0
 115  69   0   8  30   7  0  0
 116 642   0  10   0   0  1  0
 117  69   0  12  31  11  0  0
 118 220   0   0   0   6  0  0
 119  69   0   0   0   7  0  0
 120 148186   0   0   0   0  0  0
 121 270   1   0   0   1  0  0
 122 299705   0   0   0   0  0  0
 123  25   0   0   0   2  0  0
 124 270   2   0   0   3  0  0
 125 255   0   5   0   4  0  0
 126 220   1   0   0   6  0  0
 127  69   0   8  32   7  0  0
 128 642   0  10   0   0  1  0
 129  69   0  12  33  11  0  0
 130 220   0   0   0   6  0  0
 131  69   0   0   0   7  0  0
 132 148186   0   0   0   0  0  0
 133 270   1   0   0   1  0  0
 134 299705   0   0   0   0  0  0
 135  25   0   0   0   2  0  0
 136 270   2   0   0   3  0  0
 137 255   0   5   0   4  0  0
 138 220   1   0   0   6  0  0
 139  69   0   8  34   7  0  0
 140 642   0  10   0   0  1  0
 141  69   0  12  35  11  0  0
 142 220   0   0   0   6  0  0
 143  69   0   0   0   7  0  0
 144 148186   0   0   0   0  0  0
 145 270   1   0   0   1  0  0
 146 299705   0   0   0   0  0  0
 147  25   0   0   0   2  0  0
 148 270   2   0   0   3  0  0
 149 255   0   5   0   4  0  0
 150 220   1   0   0   6  0  0
 151  69   0   8  36   7  0  0
 152 642   0  10   0   0  1  0
 153  69   0  12  37  11  0  0
 154 220   0   0   0   6  0  0
 155  69   0   0   0   7  0  0
 156 148186   0   0   0   0  0  0
 157 270   1   0   0   1  0  0
 158 299705   0   0   0   0  0  0
 159  25   0   0   0   2  0  0
 160 270   2   0   0   3  0  0
 161 255   0   5   0   4  0  0
 162 220   1   0   0   6  0  0
 163  69   0   8  38   7  0  0
 164 642   0  10   0   0  1  0
 165  69   0  12  39  11  0  0
 166 220   0   0   0   6  0  0
 167  69   0   0   0   7  0  0
 168 148186   0   0   0   0  0  0
 169 270   1   0   0   1  0  0
 170 299705   0   0   0   0  0  0
 171  25   0   0   0   2  0  0
 172 270   2   0   0   3  0  0
 173 255   0   5   0   4  0  0
 174 220   1   0   0   6  0  0
 175  69   0   8  40   7  0  0
 176 642   0  10   0   0  1  0
 177  69   0  12  41  11  0  0
 178 220   0   0   0   6  0  0
 179  69   0   0   0   7  0  0
 180 148186   0   0   0   0  0  0
 181 270   1   0   0   1  0  0
 182 299705   0   0   0   0  0  0
 183  25   0   0   0   2  0  0
 184 270   2   0   0   3  0  0
 185 255   0   5   0   4  0  0
 186 220   1   0   0   6  0  0
 187  69   0   8  42   7  0  0
 188 642   0  10   0   0  1  0
 189  69   0  12  43  11  0  0
 190 220   0   0   0   6  0  0
 191  69   0   0   0   7  0  0
 192 148186   0   0   0   0  0  0
 193 270   1   0   0   1  0  0
 194 299705   0   0   0   0  0  0
 195  25   0   0   0   2  0  0
 196 270   2   0   0   3  0  0
 197 255   0   5   0   4  0  0
 198 220   1   0   0   6  0  0
 199  69   0   8  44   7  0  0
 200 642   0  10   0   0  1  0
 201  69   0  12  45  11  0  0
 202 220   0   0   0   6  0  0
 203  69   0   0   0   7  0  0
 204 148186   0   0   0   0  0  0
 205 270   1   0   0   1  0  0
 206 299705   0   0   0   0  0  0
 207  25   0   0   0   2  0  0
 208 270   2   0   0   3  0  0
 209 255   0   5   0   4  0  0
 210 220   1   0   0   6  0  0
 211  69   0   8  46   7  0  0
 212 642   0  10   0   0  1  0
 213  69   0  12  47  11  0  0
 214 220   0   0   0   6  0  0
 215  69   0   0   0   7  0  0
 216 148186   0   0   0   0  0  0
 217 270   1   0   0   1  0  0
 218 299705   0   0   0   0  0  0
 219  25   0   0   0   2  0  0
 220 270   2   0   0   3  0  0
 221 255   0   5   0   4  0  0
 222 220   1   0   0   6  0  0
 223  69   0   8  48   7  0  0
 224 642   0  10   0   0  1  0
 225  69   0  12  49  11  0  0
 226 220   0   0   0   6  0  0
 227  69   0   0   0   7  0  0
 228 148186   0   0   0   0  0  0
 229 270   1   0   0   1  0  0
 230 299705   0   0   0   0  0  0
 231  25   0   0   0   2  0  0
 232 270   2   0   0   3  0  0
 233 255   0   5   0   4  0  0
 234 220   1   0   0   6  0  0
 235  69   0   8  50   7  0  0
 236 642   0  10   0   0  1  0
 237  69   0  12  51  11  0  0
 238 220   0   0   0   6  0  0
 239  69   0   0   0   7  0  0
 240 148186   0   0   0   0  0  0
 241 270   1   0   0   1  0  0
 242 299705   0   0   0   0  0  0
 243  25   0   0   0   2  0  0
 244 270   2   0   0   3  0  0
 245 255   0   5   0   4  0  0
 246 220   1   0   0   6  0  0
 247  69   0   8  52   7  0  0
 248 642   0  10   0   0  1  0
 249  69   0  12  53  11  0  0
 250 220   0   0   0   6  0  0
 251  69   0   0   0   7  0  0
 252 148186   0   0   0   0  0  0
 253 270   1   0   0   1  0  0
 254 299705   0   0   0   0  0  0
 255  25   0   0   0   2  0  0
 256 270   2   0   0   3  0  0
 257 255   0   5   0   4  0  0
 258 220   1   0   0   6  0  0
 259  69   0   8  54   7  0  0
 260 642   0  10   0   0  1  0
 261  69   0  12  55  11  0  0
 262 220   0   0   0   6  0  0
 263  69   0   0   0   7  0  0
 264 148186   0   0   0   0  0  0
 265 270   1   0   0   1  0  0
 266 299705   0   0   0   0  0  0
 267  25   0   0   0   2  0  0
 268 270   2   0   0   3  0  0
 269 255   0   5   0   4  0  0
 270 220   1   0   0   6  0  0
 271  69   0   8  56   7  0  0
 272 642   0  10   0   0  1  0
 273  69   0  12  57  11  0  0
 274 220   0   0   0   6  0  0
 275  69   0   0   0   7  0  0
 276 148186   0   0   0   0  0  0
 277 270   1   0   0   1  0  0
 278 299705   0   0   0   0  0  0
 279  25   0   0   0   2  0  0
 280 270   2   0   0   3  0  0
 281 255   0   5   0   4  0  0
 282 220   1   0   0   6  0  0
 283  69   0   8  58   7  0  0
 284 642   0  10   0   0  1  0
 285  69   0  12  59  11  0  0
 286 220   0   0   0   6  0  0
 287  69   0   0   0   7  0  0
 288 148186   0   0   0   0  0  0
 289 270   1   0   0   1  0  0
 290 299705   0   0   0   0  0  0
 291  25   0   0   0   2  0  0
 292 270   2   0   0   3  0  0
 293 255   0   5   0   4  0  0
 294 220   1   0   0   6  0  0
 295  69   0   8  60   7  0  0
 296 642   0  10   0   0  1  0
 297  69   0  12  61  11  0  0
 298 220   0   0   0   6  0  0
 299  69   0   0   0   7  0  0
 300 148186   0   0   0   0  0  0
 301 270   1   0   0   1  0  0
 302 299705   0   0   0   0  0  0
 303  25   0   0   0   2  0  0
 304 270   2   0   0   3  0  0
 305 255   0   5   0   4  0  0
 306 220   1   0   0   6  0  0
[RF]
1      987.454 1 2 0 100 0 0
2      394.982 7 8 0 100 0 1.5708

# Format of arbitrary gradients:
#   time_shape_id of 0 means default timing (stepping with grad_raster starting at 1/2 of grad_raster)
# id amplitude amp_shape_id time_shape_id delay
# ..      Hz/m       ..         ..          us
[GRADIENTS]
2       266667 3 4 0
3       266667 5 6 0
4       266667 9 10 0
6       266667 5 11 0
7  1.34091e+06 12 13 0
8  1.20895e+06 14 13 0
10      79750.8 5 15 0
11  1.34091e+06 16 13 0
12  1.20895e+06 17 13 0

# Format of trapezoid gradients:
# id amplitude rise flat fall delay
# ..      Hz/m   us   us   us    us
[TRAP]
 1       266667 250 2200 250   0
 5       346916 250 2050 250   0
 9      -581818 250  190 250   0
13       581818 250  190 250   0
14      -572727 250  190 250   0
15       572727 250  190 250   0
16      -563636 250  190 250   0
17       563636 250  190 250   0
18      -554545 250  190 250   0
19       554545 250  190 250   0
20      -545455 250  190 250   0
21       545455 250  190 250   0
22      -536364 250  190 250   0
23       536364 250  190 250   0
24      -527273 250  190 250   0
25       527273 250  190 250   0
26      -518182 250  190 250   0
27       518182 250  190 250   0
28      -509091 250  190 250   0
29       509091 250  190 250   0
30      -500000 250  190 250   0
31       500000 250  190 250   0
32      -490909 250  190 250   0
33       490909 250  190 250   0
34      -481818 250  190 250   0
35       481818 250  190 250   0
36      -472727 250  190 250   0
37       472727 250  190 250   0
38      -463636 250  190 250   0
39       463636 250  190 250   0
40      -454545 250  190 250   0
41       454545 250  190 250   0
42      -445455 250  190 250   0
43       445455 250  190 250   0
44      -436364 250  190 250   0
45       436364 250  190 250   0
46      -427273 250  190 250   0
47       427273 250  190 250   0
48      -418182 250  190 250   0
49       418182 250  190 250   0
50      -409091 250  190 250   0
51       409091 250  190 250   0
52      -400000 250  190 250   0
53       400000 250  190 250   0
54      -390909 250  190 250   0
55       390909 250  190 250   0
56      -381818 250  190 250   0
57       381818 250  190 250   0
58      -372727 250  190 250   0
59       372727 250  190 250   0
60      -363636 250  190 250   0
61       363636 250  190 250   0
62      -354545 250  190 250   0
63       354545 250  190 250   0
64      -345455 250  190 250   0
65       345455 250  190 250   0
66      -336364 250  190 250   0
67       336364 250  190 250   0
68      -327273 250  190 250   0
69       327273 250  190 250   0
70      -318182 250  190 250   0
71       318182 250  190 250   0
72      -309091 250  190 250   0
73       309091 250  190 250   0
74      -300000 250  190 250   0
75       300000 250  190 250   0
76      -290909 250  190 250   0
77       290909 250  190 250   0
78      -281818 250  190 250   0
79       281818 250  190 250   0
80      -272727 250  190 250   0
81       272727 250  190 250   0
82      -263636 250  190 250   0
83       263636 250  190 250   0
84      -254545 250  190 250   0
85       254545 250  190 250   0
86      -245455 250  190 250   0
87       245455 250  190 250   0
88      -236364 250  190 250   0
89       236364 250  190 250   0
90      -227273 250  190 250   0
91       227273 250  190 250   0
92      -218182 250  190 250   0
93       218182 250  190 250   0
94      -209091 250  190 250   0
95       209091 250  190 250   0
96      -200000 250  190 250   0
97       200000 250  190 250   0
98      -190909 250  190 250   0
99       190909 250  190 250   0
100      -181818 250  190 250   0
101       181818 250  190 250   0
102      -172727 250  190 250   0
103       172727 250  190 250   0
104      -163636 250  190 250   0
105       163636 250  190 250   0
106      -154545 250  190 250   0
107       154545 250  190 250   0
108      -145455 250  190 250   0
109       145455 250  190 250   0
110      -136364 250  190 250   0
111       136364 250  190 250   0
112      -127273 250  190 250   0
113       127273 250  190 250   0
114      -118182 250  190 250   0
115       118182 250  190 250   0
116      -109091 250  190 250   0
117       109091 250  190 250   0
118      -100000 250  190 250   0
119       100000 250  190 250   0
120     -90909.1 250  190 250   0
121      90909.1 250  190 250   0
122     -81818.2 250  190 250   0
123      81818.2 250  190 250   0
124     -72727.3 250  190 250   0
125      72727.3 250  190 250   0
126     -63636.4 250  190 250   0
127      63636.4 250  190 250   0
128     -54545.5 250  190 250   0
129      54545.5 250  190 250   0
130     -45454.5 250  190 250   0
131      45454.5 250  190 250   0
132     -36363.6 250  190 250   0
133      36363.6 250  190 250   0
134     -27272.7 250  190 250   0
135      27272.7 250  190 250   0
136     -18181.8 250  190 250   0
137      18181.8 250  190 250   0
138     -9090.91 250  190 250   0
139      9090.91 250  190 250   0
140            0 250  190 250   0

# Format of ADC events:
# id num dwell delay freq phase
# ..  ..    ns    us   Hz   rad
[ADC]
1 128 49844 20 0 0

# Sequence Shapes
[SHAPES]

shape_id 1
num_samples 2000
3.08579554e-10
8.33986866e-09
3.8648066e-08
1.06152001e-07
2.25824945e-07
4.12692682e-07
6.81831569e-07
1.04836659e-06
1.52746937e-06
2.13435626e-06
2.88428628e-06
3.7925592e-06
4.87451348e-06
6.14552431e-06
7.62100153e-06
9.31638765e-06
1.12471558e-05
1.34288077e-05
1.58768715e-05
1.86068999e-05
2.16344678e-05
2.49751706e-05
2.86446218e-05
3.26584508e-05
3.70323014e-05
4.1781829e-05
4.69226987e-05
5.24705833e-05
5.84411612e-05
6.4850114e-05
7.17131246e-05
7.90458748e-05
8.68640434e-05
9.51833038e-05
0.000104019322
0.000113387754
0.000123304245
0.000133784426
0.000144843909
0.000156498291
0.000168763148
0.000181654031
0.000195186469
0.00020937596
0.000224237975
0.000239787953
0.000256041298
0.00027301338
0.000290719527
0.000309175031
0.000328395136
0.000348395044
0.000369189909
0.000390794835
0.000413224874
0.000436495024
0.000460620227
0.000485615365
0.00051149526
0.00053827467
0.000565968288
0.00059459074
0.00062415658
0.000654680292
0.000686176284
0.000718658886
0.000752142352
0.000786640851
0.000822168472
0.000858739215
0.000896366994
0.000935065631
0.000974848856
0.0010157303
0.00105772351
0.00110084192
0.00114509887
0.00119050758
0.00123708119
0.00128483271
0.00133377505
0.001383921
0.00143528325
0.00148787435
0.00154170675
0.00159679277
0.0016531446
0.00171077431
0.00176969385
0.00182991502
0.0018914495
0.00195430884
0.00201850444
0.00208404756
0.00215094934
0.00221922074
0.00228887261
0.00235991563
0.00243236033
0.00250621711
0.00258149618
0.00265820763
0.00273636136
0.00281596712
0.00289703451
0.00297957295
0.0030635917
0.00314909984
0.0032361063
0.0033246198
0.00341464893
0.00350620207
0.00359928743
0.00369391304
0.00379008674
0.0038878162
0.00398710888
0.00408797207
0.00419041286
0.00429443815
0.00440005463
0.00450726881
0.004616087
0.0047265153
0.00483855962
0.00495222563
0.00506751885
0.00518444453
0.00530300776
0.00542321339
0.00554506607
0.00566857021
0.00579373003
0.00592054952
0.00604903243
0.00617918233
0.00631100252
0.0064444961
0.00657966594
0.00671651466
0.00685504467
0.00699525813
0.00713715699
0.00728074293
0.00742601741
0.00757298167
0.00772163666
0.00787198312
0.00802402155
0.00817775218
0.00833317502
0.0084902898
0.00864909602
0.00880959293
0.00897177951
0.00913565449
0.00930121637
0.00946846334
0.00963739338
0.00980800418
0.00998029319
0.0101542576
0.0103298942
0.0105071998
0.0106861707
0.010866803
0.0110490926
0.0112330349
0.0114186254
0.0116058591
0.0117947306
0.0119852344
0.0121773648
0.0123711157
0.0125664806
0.0127634531
0.0129620261
0.0131621924
0.0133639445
0.0135672748
0.013772175
0.013978637
0.0141866519
0.0143962111
0.0146073051
0.0148199246
0.0150340598
0.0152497005
0.0154668364
0.015685457
0.0159055511
0.0161271075
0.0163501148
0.0165745611
0.0168004342
0.0170277218
0.0172564111
0.017486489
0.0177179424
0.0179507574
0.0181849203
0.0184204169
0.0186572325
0.0188953524
0.0191347615
0.0193754443
0.0196173852
0.019860568
0.0201049766
0.0203505942
0.020597404
0.0208453886
0.0210945307
0.0213448122
0.0215962152
0.021848721
0.0221023111
0.0223569664
0.0226126674
0.0228693946
0.0231271279
0.0233858472
0.0236455318
0.0239061609
0.0241677132
0.0244301674
0.0246935016
0.0249576937
0.0252227214
0.025488562
0.0257551924
0.0260225894
0.0262907294
0.0265595885
0.0268291425
0.0270993669
0.0273702368
0.0276417273
0.0279138128
0.0281864678
0.0284596662
0.0287333816
0.0290075876
0.0292822573
0.0295573634
0.0298328784
0.0301087747
0.0303850242
0.0306615984
0.0309384688
0.0312156064
0.0314929819
0.0317705659
0.0320483286
0.0323262398
0.0326042691
0.032882386
0.0331605593
0.033438758
0.0337169504
0.0339951048
0.0342731891
0.0345511709
0.0348290175
0.0351066961
0.0353841735
0.0356614161
0.0359383902
0.0362150618
0.0364913967
0.0367673602
0.0370429175
0.0373180336
0.037592673
0.0378668001
0.0381403791
0.0384133737
0.0386857477
0.0389574642
0.0392284864
0.0394987771
0.0397682988
0.040037014
0.0403048845
0.0405718723
0.0408379388
0.0411030455
0.0413671534
0.0416302233
0.0418922158
0.0421530913
0.0424128099
0.0426713315
0.0429286156
0.0431846219
0.0434393093
0.043692637
0.0439445636
0.0441950477
0.0444440476
0.0446915212
0.0449374266
0.0451817214
0.0454243629
0.0456653084
0.045904515
0.0461419394
0.0463775383
0.0466112681
0.0468430849
0.0470729448
0.0473008036
0.0475266169
0.0477503402
0.0479719288
0.0481913376
0.0484085216
0.0486234355
0.0488360338
0.0490462709
0.0492541009
0.0494594779
0.0496623557
0.049862688
0.0500604282
0.0502555299
0.0504479461
0.0506376299
0.0508245343
0.0510086119
0.0511898154
0.0513680973
0.0515434098
0.0517157052
0.0518849355
0.0520510526
0.0522140083
0.0523737543
0.0525302422
0.0526834233
0.0528332489
0.0529796704
0.0531226386
0.0532621047
0.0533980194
0.0535303336
0.0536589979
0.053783963
0.0539051791
0.0540225969
0.0541361665
0.0542458382
0.0543515622
0.0544532884
0.0545509669
0.0546445476
0.0547339804
0.0548192151
0.0549002013
0.0549768887
0.055049227
0.0551171658
0.0551806544
0.0552396425
0.0552940795
0.0553439146
0.0553890974
0.0554295771
0.055465303
0.0554962245
0.0555222906
0.0555434508
0.0555596542
0.0555708501
0.0555769875
0.0555780159
0.0555738842
0.0555645419
0.0555499379
0.0555300217
0.0555047425
0.0554740494
0.0554378917
0.0553962189
0.0553489801
0.0552961248
0.0552376023
0.0551733622
0.0551033538
0.0550275267
0.0549458304
0.0548582147
0.0547646291
0.0546650235
0.0545593476
0.0544475513
0.0543295846
0.0542053975
0.0540749401
0.0539381626
0.0537950152
0.0536454484
0.0534894125
0.0533268582
0.0531577361
0.0529819969
0.0527995916
0.0526104711
0.0524145865
0.052211889
0.05200233
0.0517858609
0.0515624333
0.0513319991
0.05109451
0.050849918
0.0505981754
0.0503392345
0.0500730476
0.0497995675
0.0495187469
0.0492305388
0.0489348962
0.0486317725
0.0483211212
0.0480028958
0.0476770502
0.0473435385
0.0470023148
0.0466533336
0.0462965494
0.045931917
0.0455593914
0.045178928
0.044790482
0.0443940092
0.0439894653
0.0435768066
0.0431559893
0.04272697
0.0422897055
0.0418441528
0.0413902691
0.040928012
0.0404573393
0.0399782089
0.0394905792
0.0389944087
0.0384896562
0.0379762808
0.0374542418
0.0369234989
0.0363840119
0.0358357411
0.0352786468
0.03471269
0.0341378315
0.0335540329
0.0329612556
0.0323594618
0.0317486136
0.0311286737
0.0304996049
0.0298613704
0.0292139338
0.028557259
0.02789131
0.0272160516
0.0265314484
0.0258374657
0.0251340691
0.0244212244
0.0236988979
0.0229670561
0.0222256661
0.021474695
0.0207141106
0.0199438809
0.0191639743
0.0183743596
0.0175750059
0.0167658828
0.0159469602
0.0151182083
0.014279598
0.0134311002
0.0125726864
0.0117043285
0.0108259988
0.00993767004
0.00903931521
0.00813090785
0.00721242187
0.00628383161
0.00534511182
0.00439623768
0.0034371848
0.00246792921
0.00148844738
0.000498716194
0.000501286994
0.00151158441
0.00253219783
0.00356314858
0.00460445754
0.00565614515
0.00671823137
0.00779073572
0.00887367726
0.00996707457
0.0110709458
0.0121853086
0.0133101801
0.0144455771
0.0155915158
0.0167480119
0.0179150807
0.0190927371
0.0202809953
0.0214798691
0.0226893719
0.0239095165
0.0251403152
0.0263817799
0.0276339218
0.0288967519
0.0301702805
0.0314545173
0.0327494717
0.0340551524
0.0353715678
0.0366987256
0.0380366331
0.039385297
0.0407447235
0.0421149182
0.0434958863
0.0448876325
0.0462901608
0.0477034748
0.0491275774
0.0505624713
0.0520081583
0.0534646398
0.0549319168
0.0564099895
0.0578988576
0.0593985205
0.0609089769
0.0624302247
0.0639622617
0.0655050848
0.0670586906
0.0686230748
0.070198233
0.0717841598
0.0733808495
0.0749882958
0.0766064917
0.0782354299
0.0798751023
0.0815255003
0.0831866147
0.0848584358
0.0865409534
0.0882341565
0.0899380337
0.091652573
0.0933777617
0.0951135868
0.0968600344
0.0986170903
0.100384739
0.102162966
0.103951755
0.105751089
0.107560951
0.109381323
0.111212186
0.113053522
0.114905312
0.116767534
0.118640169
0.120523194
0.122416589
0.12432033
0.126234394
0.128158758
0.130093398
0.132038288
0.133993404
0.135958719
0.137934206
0.139919838
0.141915589
0.143921428
0.145937327
0.147963258
0.149999188
0.152045088
0.154100927
0.156166672
0.158242292
0.160327752
0.162423019
0.164528059
0.166642837
0.168767318
0.170901465
0.173045242
0.175198612
0.177361537
0.179533978
0.181715897
0.183907254
0.186108009
0.188318121
0.190537549
0.192766251
0.195004184
0.197251306
0.199507572
0.20177294
0.204047363
0.206330797
0.208623195
0.210924512
0.213234699
0.215553711
0.217881497
0.22021801
0.222563199
0.224917016
0.22727941
0.22965033
0.232029723
0.234417539
0.236813723
0.239218224
0.241630987
0.244051957
0.24648108
0.2489183
0.251363562
0.253816808
0.256277982
0.258747025
0.26122388
0.263708488
0.266200789
0.268700724
0.271208232
0.273723253
0.276245725
0.278775585
0.281312772
0.283857223
0.286408873
0.288967659
0.291533517
0.294106381
0.296686185
0.299272864
0.30186635
0.304466578
0.307073478
0.309686984
0.312307025
0.314933534
0.31756644
0.320205674
0.322851165
0.325502841
0.328160632
0.330824465
0.333494267
0.336169966
0.338851488
0.34153876
0.344231706
0.346930252
0.349634323
0.352343842
0.355058735
0.357778923
0.36050433
0.363234878
0.365970489
0.368711085
0.371456587
0.374206916
0.376961991
0.379721733
0.382486061
0.385254894
0.388028151
0.39080575
0.393587608
0.396373643
0.399163772
0.401957911
0.404755977
0.407557886
0.410363552
0.413172891
0.415985818
0.418802246
0.42162209
0.424445263
0.427271678
0.430101249
0.432933887
0.435769505
0.438608014
0.441449326
0.444293352
0.447140003
0.449989188
0.452840819
0.455694805
0.458551055
0.461409479
0.464269984
0.467132481
0.469996877
0.472863079
0.475730996
0.478600535
0.481471603
0.484344107
0.487217952
0.490093046
0.492969294
0.495846603
0.498724876
0.501604021
0.50448394
0.50736454
0.510245725
0.513127398
0.516009465
0.518891827
0.52177439
0.524657056
0.527539729
0.530422311
0.533304705
0.536186814
0.539068539
0.541949783
0.544830448
0.547710436
0.550589648
0.553467985
0.556345349
0.559221641
0.562096761
0.564970611
0.567843091
0.570714102
0.573583543
0.576451316
0.579317319
0.582181454
0.58504362
0.587903716
0.590761643
0.5936173
0.596470586
0.599321401
0.602169643
0.605015213
0.607858008
0.610697929
0.613534874
0.616368742
0.619199432
0.622026842
0.624850872
0.62767142
0.630488385
0.633301665
0.636111159
0.638916765
0.641718383
0.644515911
0.647309247
0.650098289
0.652882938
0.65566309
0.658438645
0.661209501
0.663975557
0.666736712
0.669492864
0.672243912
0.674989755
0.677730292
0.680465421
0.683195042
0.685919054
0.688637355
0.691349846
0.694056425
0.696756992
0.699451445
0.702139686
0.704821613
0.707497126
0.710166126
0.712828511
0.715484183
0.718133042
0.720774987
0.723409921
0.726037742
0.728658353
0.731271653
0.733877546
0.736475931
0.73906671
0.741649785
0.744225058
0.746792431
0.749351806
0.751903086
0.754446173
0.75698097
0.759507381
0.762025308
0.764534655
0.767035327
0.769527226
0.772010257
0.774484326
0.776949335
0.779405191
0.781851799
0.784289064
0.786716892
0.789135189
0.791543862
0.793942816
0.79633196
0.798711199
0.801080443
0.803439598
0.805788573
0.808127276
0.810455616
0.812773502
0.815080843
0.81737755
0.819663532
0.821938699
0.824202964
0.826456236
0.828698427
0.83092945
0.833149216
0.835357638
0.837554629
0.839740102
0.841913971
0.844076151
0.846226556
0.8483651
0.8504917
0.852606271
0.854708729
0.85679899
0.858876973
0.860942594
0.862995771
0.865036422
0.867064467
0.869079824
0.871082414
0.873072156
0.875048971
0.877012779
0.878963504
0.880901066
0.882825387
0.884736392
0.886634003
0.888518145
0.890388741
0.892245717
0.894088998
0.89591851
0.89773418
0.899535933
0.901323699
0.903097405
0.904856979
0.906602351
0.90833345
0.910050206
0.91175255
0.913440413
0.915113727
0.916772424
0.918416437
0.920045699
0.921660145
0.923259709
0.924844327
0.926413933
0.927968464
0.929507858
0.931032051
0.932540981
0.934034588
0.93551281
0.936975588
0.938422861
0.939854572
0.94127066
0.942671069
0.944055742
0.945424622
0.946777654
0.948114781
0.94943595
0.950741106
0.952030196
0.953303167
0.954559967
0.955800546
0.957024851
0.958232833
0.959424442
0.96059963
0.961758349
0.96290055
0.964026187
0.965135214
0.966227585
0.967303255
0.968362181
0.969404318
0.970429624
0.971438057
0.972429575
0.973404138
0.974361705
0.975302237
0.976225695
0.977132041
0.978021238
0.978893249
0.979748039
0.980585571
0.981405812
0.982208728
0.982994285
0.983762452
0.984513196
0.985246486
0.985962292
0.986660586
0.987341337
0.988004517
0.9886501
0.989278059
0.989888367
0.990481
0.991055932
0.991613141
0.992152603
0.992674295
0.993178197
0.993664287
0.994132546
0.994582953
0.99501549
0.99543014
0.995826885
0.996205709
0.996566596
0.99690953
0.997234499
0.997541488
0.997830485
0.998101478
0.998354455
0.998589406
0.998806322
0.999005192
0.99918601
0.999348768
0.999493458
0.999620075
0.999728614
0.99981907
0.999891439
0.999945718
0.999981906
1
1
0.999981906
0.999945718
0.999891439
0.99981907
0.999728614
0.999620075
0.999493458
0.999348768
0.99918601
0.999005192
0.998806322
0.998589406
0.998354455
0.998101478
0.997830485
0.997541488
0.997234499
0.99690953
0.996566596
0.996205709
0.995826885
0.99543014
0.99501549
0.994582953
0.994132546
0.993664287
0.993178197
0.992674295
0.992152603
0.991613141
0.991055932
0.990481
0.989888367
0.989278059
0.9886501
0.988004517
0.987341337
0.986660586
0.985962292
0.985246486
0.984513196
0.983762452
0.982994285
0.982208728
0.981405812
0.980585571
0.979748039
0.978893249
0.978021238
0.977132041
0.976225695
0.975302237
0.974361705
0.973404138
0.972429575
0.971438057
0.970429624
0.969404318
0.968362181
0.967303255
0.966227585
0.965135214
0.964026187
0.96290055
0.961758349
0.96059963
0.959424442
0.958232833
0.957024851
0.955800546
0.954559967
0.953303167
0.952030196
0.950741106
0.94943595
0.948114781
0.946777654
0.945424622
0.944055742
0.942671069
0.94127066
0.939854572
0.938422861
0.936975588
0.93551281
0.934034588
0.932540981
0.931032051
0.929507858
0.927968464
0.926413933
0.924844327
0.923259709
0.921660145
0.920045699
0.918416437
0.916772424
0.915113727
0.913440413
0.91175255
0.910050206
0.90833345
0.906602351
0.904856979
0.903097405
0.901323699
0.899535933
0.89773418
0.89591851
0.894088998
0.892245717
0.890388741
0.888518145
0.886634003
0.884736392
0.882825387
0.880901066
0.878963504
0.877012779
0.875048971
0.873072156
0.871082414
0.869079824
0.867064467
0.865036422
0.862995771
0.860942594
0.858876973
0.85679899
0.854708729
0.852606271
0.8504917
0.8483651
0.846226556
0.844076151
0.841913971
0.839740102
0.837554629
0.835357638
0.833149216
0.83092945
0.828698427
0.826456236
0.824202964
0.821938699
0.819663532
0.81737755
0.815080843
0.812773502
0.810455616
0.808127276
0.805788573
0.803439598
0.801080443
0.798711199
0.79633196
0.793942816
0.791543862
0.789135189
0.786716892
0.784289064
0.781851799
0.779405191
0.776949335
0.774484326
0.772010257
0.769527226
0.767035327
0.764534655
0.762025308
0.759507381
0.75698097
0.754446173
0.751903086
0.749351806
0.746792431
0.744225058
0.741649785
0.73906671
0.736475931
