# Pulseq sequence file
# Created by PyPulseq

[VERSION]
major 1
minor 4
revision 0

[DEFINITIONS]
AdcRasterTime 1e-06 
BlockDurationRaster 1e-06 
FOV 0.25 0.25 0.005 
GradientRasterTime 1e-05 
Name RARE_TSE 
RadiofrequencyRasterTime 1e-05 
TotalDuration 95.81132 

# Format of blocks:
# NUM DUR RF  GX  GY  GZ  ADC  EXT
[BLOCKS]
    1 3570   1   1   0   2  0  0
    2 5840   2   3   4   5  0  0
    3 750   0   6   7   6  0  0
    4 1300   0   8   0   0  1  9
    5 2110   0   9  10   9  0  0
    6 5840   2   3   4   5  0  0
    7 750   0   6  11   6  0  0
    8 1300   0   8   0   0  1 10
    9 2110   0   9  12   9  0  0
   10 5840   2   3   4   5  0  0
   11 750   0   6  13   6  0  0
   12 1300   0   8   0   0  1 11
   13 2110   0   9  14   9  0  0
   14 5840   2   3   4   5  0  0
   15 750   0   6  15   6  0  0
   16 1300   0   8   0   0  1 12
   17 2110   0   9  16   9  0  0
   18 5840   2   3   4   5  0  0
   19 750   0   6   6   6  0  0
   20 1300   0   8   0   0  1 13
   21 2110   0   9   9   9  0  0
   22 5840   2   3   4   5  0  0
   23 750   0   6  17   6  0  0
   24 1300   0   8   0   0  1 14
   25 2110   0   9  18   9  0  0
   26 5840   2   3   4   5  0  0
   27 750   0   6  19   6  0  0
   28 1300   0   8   0   0  1 15
   29 2110   0   9  20   9  0  0
   30 5840   2   3   4   5  0  0
   31 750   0   6  21   6  0  0
   32 1300   0   8   0   0  1 16
   33 2110   0   9  22   9  0  0
   34 189160   0   0   0  23  0  0
   35 3570   3   1   0   2  0  0
   36 5840   4   3   4   5  0  0
   37 750   0   6   7   6  0  0
   38 1300   0   8   0   0  1 18
   39 2110   0   9  10   9  0  0
   40 5840   4   3   4   5  0  0
   41 750   0   6  11   6  0  0
   42 1300   0   8   0   0  1 10
   43 2110   0   9  12   9  0  0
   44 5840   4   3   4   5  0  0
   45 750   0   6  13   6  0  0
   46 1300   0   8   0   0  1 11
   47 2110   0   9  14   9  0  0
   48 5840   4   3   4   5  0  0
   49 750   0   6  15   6  0  0
   50 1300   0   8   0   0  1 12
   51 2110   0   9  16   9  0  0
   52 5840   4   3   4   5  0  0
   53 750   0   6   6   6  0  0
   54 1300   0   8   0   0  1 13
   55 2110   0   9   9   9  0  0
   56 5840   4   3   4   5  0  0
   57 750   0   6  17   6  0  0
   58 1300   0   8   0   0  1 14
   59 2110   0   9  18   9  0  0
   60 5840   4   3   4   5  0  0
   61 750   0   6  19   6  0  0
   62 1300   0   8   0   0  1 15
   63 2110   0   9  20   9  0  0
   64 5840   4   3   4   5  0  0
   65 750   0   6  21   6  0  0
   66 1300   0   8   0   0  1 16
   67 2110   0   9  22   9  0  0
   68 189150   0   0   0  23  0  0
   69 3570   5   1   0   2  0  0
   70 5840   6   3   4   5  0  0
   71 750   0   6   7   6  0  0
   72 1300   0   8   0   0  1 20
   73 2110   0   9  10   9  0  0
   74 5840   6   3   4   5  0  0
   75 750   0   6  11   6  0  0
   76 1300   0   8   0   0  1 10
   77 2110   0   9  12   9  0  0
   78 5840   6   3   4   5  0  0
   79 750   0   6  13   6  0  0
   80 1300   0   8   0   0  1 11
   81 2110   0   9  14   9  0  0
   82 5840   6   3   4   5  0  0
   83 750   0   6  15   6  0  0
   84 1300   0   8   0   0  1 12
   85 2110   0   9  16   9  0  0
   86 5840   6   3   4   5  0  0
   87 750   0   6   6   6  0  0
   88 1300   0   8   0   0  1 13
   89 2110   0   9   9   9  0  0
   90 5840   6   3   4   5  0  0
   91 750   0   6  17   6  0  0
   92 1300   0   8   0   0  1 14
   93 2110   0   9  18   9  0  0
   94 5840   6   3   4   5  0  0
   95 750   0   6  19   6  0  0
   96 1300   0   8   0   0  1 15
   97 2110   0   9  20   9  0  0
   98 5840   6   3   4   5  0  0
   99 750   0   6  21   6  0  0
  100 1300   0   8   0   0  1 16
  101 2110   0   9  22   9  0  0
  102 189160   0   0   0  23  0  0
  103 3570   7   1   0   2  0  0
  104 5840   8   3   4   5  0  0
  105 750   0   6   7   6  0  0
  106 1300   0   8   0   0  1 22
  107 2110   0   9  10   9  0  0
  108 5840   8   3   4   5  0  0
  109 750   0   6  11   6  0  0
  110 1300   0   8   0   0  1 10
  111 2110   0   9  12   9  0  0
  112 5840   8   3   4   5  0  0
  113 750   0   6  13   6  0  0
  114 1300   0   8   0   0  1 11
  115 2110   0   9  14   9  0  0
  116 5840   8   3   4   5  0  0
  117 750   0   6  15   6  0  0
  118 1300   0   8   0   0  1 12
  119 2110   0   9  16   9  0  0
  120 5840   8   3   4   5  0  0
  121 750   0   6   6   6  0  0
  122 1300   0   8   0   0  1 13
  123 2110   0   9   9   9  0  0
  124 5840   8   3   4   5  0  0
  125 750   0   6  17   6  0  0
  126 1300   0   8   0   0  1 14
  127 2110   0   9  18   9  0  0
  128 5840   8   3   4   5  0  0
  129 750   0   6  19   6  0  0
  130 1300   0   8   0   0  1 15
  131 2110   0   9  20   9  0  0
  132 5840   8   3   4   5  0  0
  133 750   0   6  21   6  0  0
  134 1300   0   8   0   0  1 16
  135 2110   0   9  22   9  0  0
  136 189160   0   0   0  23  0  0
  137 3570   9   1   0   2  0  0
  138 5840  10   3   4   5  0  0
  139 750   0   6   7   6  0  0
  140 1300   0   8   0   0  1 24
  141 2110   0   9  10   9  0  0
  142 5840  10   3   4   5  0  0
  143 750   0   6  11   6  0  0
  144 1300   0   8   0   0  1 10
  145 2110   0   9  12   9  0  0
  146 5840  10   3   4   5  0  0
  147 750   0   6  13   6  0  0
  148 1300   0   8   0   0  1 11
  149 2110   0   9  14   9  0  0
  150 5840  10   3   4   5  0  0
  151 750   0   6  15   6  0  0
  152 1300   0   8   0   0  1 12
  153 2110   0   9  16   9  0  0
  154 5840  10   3   4   5  0  0
  155 750   0   6   6   6  0  0
  156 1300   0   8   0   0  1 13
  157 2110   0   9   9   9  0  0
  158 5840  10   3   4   5  0  0
  159 750   0   6  17   6  0  0
  160 1300   0   8   0   0  1 14
  161 2110   0   9  18   9  0  0
  162 5840  10   3   4   5  0  0
  163 750   0   6  19   6  0  0
  164 1300   0   8   0   0  1 15
  165 2110   0   9  20   9  0  0
  166 5840  10   3   4   5  0  0
  167 750   0   6  21   6  0  0
  168 1300   0   8   0   0  1 16
  169 2110   0   9  22   9  0  0
  170 189160   0   0   0  23  0  0
  171 3570  11   1   0   2  0  0
  172 5840  12   3   4   5  0  0
  173 750   0   6   7   6  0  0
  174 1300   0   8   0   0  1 26
  175 2110   0   9  10   9  0  0
  176 5840  12   3   4   5  0  0
  177 750   0   6  11   6  0  0
  178 1300   0   8   0   0  1 10
  179 2110   0   9  12   9  0  0
  180 5840  12   3   4   5  0  0
  181 750   0   6  13   6  0  0
  182 1300   0   8   0   0  1 11
  183 2110   0   9  14   9  0  0
  184 5840  12   3   4   5  0  0
  185 750   0   6  15   6  0  0
  186 1300   0   8   0   0  1 12
  187 2110   0   9  16   9  0  0
  188 5840  12   3   4   5  0  0
  189 750   0   6   6   6  0  0
  190 1300   0   8   0   0  1 13
  191 2110   0   9   9   9  0  0
  192 5840  12   3   4   5  0  0
  193 750   0   6  17   6  0  0
  194 1300   0   8   0   0  1 14
  195 2110   0   9  18   9  0  0
  196 5840  12   3   4   5  0  0
  197 750   0   6  19   6  0  0
  198 1300   0   8   0   0  1 15
  199 2110   0   9  20   9  0  0
  200 5840  12   3   4   5  0  0
  201 750   0   6  21   6  0  0
  202 1300   0   8   0   0  1 16
  203 2110   0   9  22   9  0  0
  204 189150   0   0   0  23  0  0
  205 3570  13   1   0   2  0  0
  206 5840  14   3   4   5  0  0
  207 750   0   6   7   6  0  0
  208 1300   0   8   0   0  1 28
  209 2110   0   9  10   9  0  0
  210 5840  14   3   4   5  0  0
  211 750   0   6  11   6  0  0
  212 1300   0   8   0   0  1 10
  213 2110   0   9  12   9  0  0
  214 5840  14   3   4   5  0  0
  215 750   0   6  13   6  0  0
  216 1300   0   8   0   0  1 11
  217 2110   0   9  14   9  0  0
  218 5840  14   3   4   5  0  0
  219 750   0   6  15   6  0  0
  220 1300   0   8   0   0  1 12
  221 2110   0   9  16   9  0  0
  222 5840  14   3   4   5  0  0
  223 750   0   6   6   6  0  0
  224 1300   0   8   0   0  1 13
  225 2110   0   9   9   9  0  0
  226 5840  14   3   4   5  0  0
  227 750   0   6  17   6  0  0
  228 1300   0   8   0   0  1 14
  229 2110   0   9  18   9  0  0
  230 5840  14   3   4   5  0  0
  231 750   0   6  19   6  0  0
  232 1300   0   8   0   0  1 15
  233 2110   0   9  20   9  0  0
  234 5840  14   3   4   5  0  0
  235 750   0   6  21   6  0  0
  236 1300   0   8   0   0  1 16
  237 2110   0   9  22   9  0  0
  238 189160   0   0   0  23  0  0
  239 3570  15   1   0   2  0  0
  240 5840  16   3   4   5  0  0
  241 750   0   6   7   6  0  0
  242 1300   0   8   0   0  1 30
  243 2110   0   9  10   9  0  0
  244 5840  16   3   4   5  0  0
  245 750   0   6  11   6  0  0
  246 1300   0   8   0   0  1 10
  247 2110   0   9  12   9  0  0
  248 5840  16   3   4   5  0  0
  249 750   0   6  13   6  0  0
  250 1300   0   8   0   0  1 11
  251 2110   0   9  14   9  0  0
  252 5840  16   3   4   5  0  0
  253 750   0   6  15   6  0  0
  254 1300   0   8   0   0  1 12
  255 2110   0   9  16   9  0  0
  256 5840  16   3   4   5  0  0
  257 750   0   6   6   6  0  0
  258 1300   0   8   0   0  1 13
  259 2110   0   9   9   9  0  0
  260 5840  16   3   4   5  0  0
  261 750   0   6  17   6  0  0
  262 1300   0   8   0   0  1 14
  263 2110   0   9  18   9  0  0
  264 5840  16   3   4   5  0  0
  265 750   0   6  19   6  0  0
  266 1300   0   8   0   0  1 15
  267 2110   0   9  20   9  0  0
  268 5840  16   3   4   5  0  0
  269 750   0   6  21   6  0  0
  270 1300   0   8   0   0  1 16
  271 2110   0   9  22   9  0  0
  272 189160   0   0   0  23  0  0
  273 3570  17   1   0   2  0  0
  274 5840  18   3   4   5  0  0
  275 750   0   6   7   6  0  0
  276 1300   0   8   0   0  1 32
  277 2110   0   9  10   9  0  0
  278 5840  18   3   4   5  0  0
  279 750   0   6  11   6  0  0
  280 1300   0   8   0   0  1 10
  281 2110   0   9  12   9  0  0
  282 5840  18   3   4   5  0  0
  283 750   0   6  13   6  0  0
  284 1300   0   8   0   0  1 11
  285 2110   0   9  14   9  0  0
  286 5840  18   3   4   5  0  0
  287 750   0   6  15   6  0  0
  288 1300   0   8   0   0  1 12
  289 2110   0   9  16   9  0  0
  290 5840  18   3   4   5  0  0
  291 750   0   6   6   6  0  0
  292 1300   0   8   0   0  1 13
  293 2110   0   9   9   9  0  0
  294 5840  18   3   4   5  0  0
[RF]
1      927.704 1 2 0 110 -18571.4 1.5708
2      812.196 4 5 0 640 -7386.36 0
3      927.704 1 2 0 110 -11142.9 1.5708
4      812.196 4 5 0 640 -4431.82 0
5      927.704 1 2 0 110 -3714.29 1.5708
6      812.196 4 5 0 640 -1477.27 0
7      927.704 1 2 0 110 3714.29 1.5708
8      812.196 4 5 0 640 1477.27 0
9      927.704 1 2 0 110 11142.9 1.5708
10      812.196 4 5 0 640 4431.82 0
11      927.704 1 2 0 110 18571.4 1.5708
12      812.196 4 5 0 640 7386.36 0
13      927.704 1 2 0 110 -14857.1 1.5708
14      812.196 4 5 0 640 -5909.09 0
15      927.704 1 2 0 110 -7428.57 1.5708
16      812.196 4 5 0 640 -2954.55 0
17      927.704 1 2 0 110 0 1.5708
18      812.196 4 5 0 640 0 0
19      927.704 1 2 0 110 7428.57 1.5708
20      812.196 4 5 0 640 2954.55 0
21      927.704 1 2 0 110 14857.1 1.5708
22      812.196 4 5 0 640 5909.09 0

# Format of arbitrary gradients:
#   time_shape_id of 0 means default timing (stepping with grad_raster starting at 1/2 of grad_raster)
# id amplitude amp_shape_id time_shape_id delay
# ..      Hz/m       ..         ..          us
[GRADIENTS]
2  2.44242e+06 3 0 0
3        1e+06 6 0 0
4            0 7 0 0
5        1e+06 8 0 0
6            0 9 0 0
9            0 10 0 0
23  1.66667e+06 11 0 0

# Format of trapezoid gradients:
# id amplitude rise flat fall delay
# ..      Hz/m   us   us   us    us
[TRAP]
 1  1.01517e+06 240  340 240 1620
 7 -1.00392e+06 240  270 240   0
 8    1.024e+06 150 1000 150   0
10       882759 240  340 240   0
11      -752941 240  270 240   0
12       662069 240  340 240   0
13      -501961 240  270 240   0
14       441379 240  340 240   0
15      -250980 240  270 240   0
16       220690 240  340 240   0
17       250980 240  270 240   0
18      -220690 240  340 240   0
19       501961 240  270 240   0
20      -441379 240  340 240   0
21       752941 240  270 240   0
22      -662069 240  340 240   0
24      -996078 240  270 240   0
25       875862 240  340 240   0
26      -745098 240  270 240   0
27       655172 240  340 240   0
28      -494118 240  270 240   0
29       434483 240  340 240   0
30      -243137 240  270 240   0
31       213793 240  340 240   0
32      7843.14 240  270 240   0
33     -6896.56 240  340 240   0
34       258824 240  270 240   0
35      -227586 240  340 240   0
36       509804 240  270 240   0
37      -448276 240  340 240   0
38       760784 240  270 240   0
39      -668966 240  340 240   0
40      -988235 240  270 240   0
41       868966 240  340 240   0
42      -737255 240  270 240   0
43       648276 240  340 240   0
44      -486275 240  270 240   0
45       427586 240  340 240   0
46      -235294 240  270 240   0
47       206897 240  340 240   0
48      15686.3 240  270 240   0
49     -13793.1 240  340 240   0
50       266667 240  270 240   0
51      -234483 240  340 240   0
52       517647 240  270 240   0
53      -455172 240  340 240   0
54       768627 240  270 240   0
55      -675862 240  340 240   0
56      -980392 240  270 240   0
57       862069 240  340 240   0
58      -729412 240  270 240   0
59       641379 240  340 240   0
60      -478431 240  270 240   0
61       420690 240  340 240   0
62      -227451 240  270 240   0
63       200000 240  340 240   0
64      23529.4 240  270 240   0
65     -20689.6 240  340 240   0
66       274510 240  270 240   0
67      -241379 240  340 240   0
68       525490 240  270 240   0
69      -462069 240  340 240   0
70       776471 240  270 240   0
71      -682759 240  340 240   0
72      -972549 240  270 240   0
73       855172 240  340 240   0
74      -721569 240  270 240   0
75       634483 240  340 240   0
76      -470588 240  270 240   0
77       413793 240  340 240   0
78      -219608 240  270 240   0
79       193103 240  340 240   0
80      31372.5 240  270 240   0
81     -27586.2 240  340 240   0
82       282353 240  270 240   0
83      -248276 240  340 240   0
84       533333 240  270 240   0
85      -468966 240  340 240   0
86       784314 240  270 240   0
87      -689655 240  340 240   0
88      -964706 240  270 240   0
89       848276 240  340 240   0
90      -713725 240  270 240   0
91       627586 240  340 240   0
92      -462745 240  270 240   0
93       406897 240  340 240   0
94      -211765 240  270 240   0
95       186207 240  340 240   0
96      39215.7 240  270 240   0
97     -34482.8 240  340 240   0
98       290196 240  270 240   0
99      -255172 240  340 240   0
100       541176 240  270 240   0
101      -475862 240  340 240   0
102       792157 240  270 240   0
103      -696552 240  340 240   0
104      -956863 240  270 240   0
105       841379 240  340 240   0
106      -705882 240  270 240   0
107       620690 240  340 240   0
108      -454902 240  270 240   0
109       400000 240  340 240   0
110      -203922 240  270 240   0
111       179310 240  340 240   0
112      47058.8 240  270 240   0
113     -41379.3 240  340 240   0
114       298039 240  270 240   0
115      -262069 240  340 240   0
116       549020 240  270 240   0
117      -482759 240  340 240   0
118       800000 240  270 240   0
119      -703448 240  340 240   0
120      -949020 240  270 240   0
121       834483 240  340 240   0
122      -698039 240  270 240   0
123       613793 240  340 240   0
124      -447059 240  270 240   0
125       393103 240  340 240   0
126      -196078 240  270 240   0
127       172414 240  340 240   0
128        54902 240  270 240   0
129     -48275.8 240  340 240   0
130       305882 240  270 240   0
131      -268966 240  340 240   0
132       556863 240  270 240   0
133      -489655 240  340 240   0
134       807843 240  270 240   0
135      -710345 240  340 240   0
136      -941176 240  270 240   0
137       827586 240  340 240   0
138      -690196 240  270 240   0
139       606897 240  340 240   0
140      -439216 240  270 240   0
141       386207 240  340 240   0
142      -188235 240  270 240   0
143       165517 240  340 240   0
144      62745.1 240  270 240   0
145     -55172.4 240  340 240   0
146       313725 240  270 240   0
147      -275862 240  340 240   0
148       564706 240  270 240   0
149      -496552 240  340 240   0
150       815686 240  270 240   0
151      -717241 240  340 240   0
152      -933333 240  270 240   0
153       820690 240  340 240   0
154      -682353 240  270 240   0
155       600000 240  340 240   0
156      -431373 240  270 240   0
157       379310 240  340 240   0
158      -180392 240  270 240   0
159       158621 240  340 240   0
160      70588.2 240  270 240   0
161       -62069 240  340 240   0
162       321569 240  270 240   0
163      -282759 240  340 240   0
164       572549 240  270 240   0
165      -503448 240  340 240   0
166       823529 240  270 240   0
167      -724138 240  340 240   0
168      -925490 240  270 240   0
169       813793 240  340 240   0
170      -674510 240  270 240   0
171       593103 240  340 240   0
172      -423529 240  270 240   0
173       372414 240  340 240   0
174      -172549 240  270 240   0
175       151724 240  340 240   0
176      78431.4 240  270 240   0
177     -68965.5 240  340 240   0
178       329412 240  270 240   0
179      -289655 240  340 240   0
180       580392 240  270 240   0
181      -510345 240  340 240   0
182       831373 240  270 240   0
183      -731035 240  340 240   0
184      -917647 240  270 240   0
185       806897 240  340 240   0
186      -666667 240  270 240   0
187       586207 240  340 240   0
188      -415686 240  270 240   0
189       365517 240  340 240   0
190      -164706 240  270 240   0
191       144828 240  340 240   0
192      86274.5 240  270 240   0
193     -75862.1 240  340 240   0
194       337255 240  270 240   0
195      -296552 240  340 240   0
196       588235 240  270 240   0
197      -517241 240  340 240   0
198       839216 240  270 240   0
199      -737931 240  340 240   0
200      -909804 240  270 240   0
201       800000 240  340 240   0
202      -658824 240  270 240   0
203       579310 240  340 240   0
204      -407843 240  270 240   0
205       358621 240  340 240   0
206      -156863 240  270 240   0
207       137931 240  340 240   0
208      94117.7 240  270 240   0
209     -82758.6 240  340 240   0
210       345098 240  270 240   0
211      -303448 240  340 240   0
212       596078 240  270 240   0
213      -524138 240  340 240   0
214       847059 240  270 240   0
215      -744828 240  340 240   0
216      -901961 240  270 240   0
217       793103 240  340 240   0
218      -650980 240  270 240   0
219       572414 240  340 240   0
220      -400000 240  270 240   0
221       351724 240  340 240   0
222      -149020 240  270 240   0
223       131034 240  340 240   0
224       101961 240  270 240   0
225     -89655.2 240  340 240   0
226       352941 240  270 240   0
227      -310345 240  340 240   0
228       603922 240  270 240   0
229      -531035 240  340 240   0
230       854902 240  270 240   0
231      -751724 240  340 240   0
232      -894118 240  270 240   0
233       786207 240  340 240   0
234      -643137 240  270 240   0
235       565517 240  340 240   0
236      -392157 240  270 240   0
237       344828 240  340 240   0
238      -141176 240  270 240   0
239       124138 240  340 240   0
240       109804 240  270 240   0
241     -96551.7 240  340 240   0
242       360784 240  270 240   0
243      -317241 240  340 240   0
244       611765 240  270 240   0
245      -537931 240  340 240   0
246       862745 240  270 240   0
247      -758621 240  340 240   0
248      -886274 240  270 240   0
249       779310 240  340 240   0
250      -635294 240  270 240   0
251       558621 240  340 240   0
252      -384314 240  270 240   0
253       337931 240  340 240   0
254      -133333 240  270 240   0
255       117241 240  340 240   0
256       117647 240  270 240   0
257      -103448 240  340 240   0
258       368627 240  270 240   0
259      -324138 240  340 240   0
260       619608 240  270 240   0
261      -544828 240  340 240   0
262       870588 240  270 240   0
263      -765517 240  340 240   0
264      -878431 240  270 240   0
265       772414 240  340 240   0
266      -627451 240  270 240   0
267       551724 240  340 240   0
268      -376471 240  270 240   0
269       331034 240  340 240   0
270      -125490 240  270 240   0
271       110345 240  340 240   0
272       125490 240  270 240   0
273      -110345 240  340 240   0
274       376471 240  270 240   0
275      -331034 240  340 240   0
276       627451 240  270 240   0
277      -551724 240  340 240   0
278       878431 240  270 240   0
279      -772414 240  340 240   0
280      -870588 240  270 240   0
281       765517 240  340 240   0
282      -619608 240  270 240   0
283       544828 240  340 240   0
284      -368627 240  270 240   0
285       324138 240  340 240   0
286      -117647 240  270 240   0
287       103448 240  340 240   0
288       133333 240  270 240   0
289      -117241 240  340 240   0
290       384314 240  270 240   0
291      -337931 240  340 240   0
292       635294 240  270 240   0
293      -558621 240  340 240   0
294       886274 240  270 240   0
295      -779310 240  340 240   0
296      -862745 240  270 240   0
297       758621 240  340 240   0
298      -611765 240  270 240   0
299       537931 240  340 240   0
300      -360784 240  270 240   0
301       317241 240  340 240   0
302      -109804 240  270 240   0
303      96551.7 240  340 240   0
304       141176 240  270 240   0
305      -124138 240  340 240   0
306       392157 240  270 240   0
307      -344828 240  340 240   0
308       643137 240  270 240   0
309      -565517 240  340 240   0
310       894118 240  270 240   0
311      -786207 240  340 240   0
312      -854902 240  270 240   0
313       751724 240  340 240   0
314      -603922 240  270 240   0
315       531035 240  340 240   0
316      -352941 240  270 240   0
317       310345 240  340 240   0
318      -101961 240  270 240   0
319      89655.2 240  340 240   0
320       149020 240  270 240   0
321      -131034 240  340 240   0
322       400000 240  270 240   0
323      -351724 240  340 240   0
324       650980 240  270 240   0
325      -572414 240  340 240   0
326       901961 240  270 240   0
327      -793103 240  340 240   0
328      -847059 240  270 240   0
329       744828 240  340 240   0
330      -596078 240  270 240   0
331       524138 240  340 240   0
332      -345098 240  270 240   0
333       303448 240  340 240   0
334     -94117.7 240  270 240   0
335      82758.6 240  340 240   0
336       156863 240  270 240   0
337      -137931 240  340 240   0
338       407843 240  270 240   0
339      -358621 240  340 240   0
340       658824 240  270 240   0
341      -579310 240  340 240   0
342       909804 240  270 240   0
343      -800000 240  340 240   0
344      -839216 240  270 240   0
345       737931 240  340 240   0
346      -588235 240  270 240   0
347       517241 240  340 240   0
348      -337255 240  270 240   0
349       296552 240  340 240   0
350     -86274.5 240  270 240   0
351      75862.1 240  340 240   0
352       164706 240  270 240   0
353      -144828 240  340 240   0
354       415686 240  270 240   0
355      -365517 240  340 240   0
356       666667 240  270 240   0
357      -586207 240  340 240   0
358       917647 240  270 240   0
359      -806897 240  340 240   0
360      -831373 240  270 240   0
361       731035 240  340 240   0
362      -580392 240  270 240   0
363       510345 240  340 240   0
364      -329412 240  270 240   0
365       289655 240  340 240   0
366     -78431.4 240  270 240   0
367      68965.5 240  340 240   0
368       172549 240  270 240   0
369      -151724 240  340 240   0
370       423529 240  270 240   0
371      -372414 240  340 240   0
372       674510 240  270 240   0
373      -593103 240  340 240   0
374       925490 240  270 240   0
375      -813793 240  340 240   0
376      -823529 240  270 240   0
377       724138 240  340 240   0
378      -572549 240  270 240   0
379       503448 240  340 240   0
380      -321569 240  270 240   0
381       282759 240  340 240   0
382     -70588.2 240  270 240   0
383        62069 240  340 240   0
384       180392 240  270 240   0
385      -158621 240  340 240   0
386       431373 240  270 240   0
387      -379310 240  340 240   0
388       682353 240  270 240   0
389      -600000 240  340 240   0
390       933333 240  270 240   0
391      -820690 240  340 240   0
392      -815686 240  270 240   0
393       717241 240  340 240   0
394      -564706 240  270 240   0
395       496552 240  340 240   0
396      -313725 240  270 240   0
397       275862 240  340 240   0
398     -62745.1 240  270 240   0
399      55172.4 240  340 240   0
400       188235 240  270 240   0
401      -165517 240  340 240   0
402       439216 240  270 240   0
403      -386207 240  340 240   0
404       690196 240  270 240   0
405      -606897 240  340 240   0
406       941176 240  270 240   0
407      -827586 240  340 240   0
408      -807843 240  270 240   0
409       710345 240  340 240   0
410      -556863 240  270 240   0
411       489655 240  340 240   0
412      -305882 240  270 240   0
413       268966 240  340 240   0
414       -54902 240  270 240   0
415      48275.8 240  340 240   0
416       196078 240  270 240   0
417      -172414 240  340 240   0
418       447059 240  270 240   0
419      -393103 240  340 240   0
420       698039 240  270 240   0
421      -613793 240  340 240   0
422       949020 240  270 240   0
423      -834483 240  340 240   0
424      -800000 240  270 240   0
425       703448 240  340 240   0
426      -549020 240  270 240   0
427       482759 240  340 240   0
428      -298039 240  270 240   0
429       262069 240  340 240   0
430     -47058.8 240  270 240   0
431      41379.3 240  340 240   0
432       203922 240  270 240   0
433      -179310 240  340 240   0
434       454902 240  270 240   0
435      -400000 240  340 240   0
436       705882 240  270 240   0
437      -620690 240  340 240   0
438       956863 240  270 240   0
439      -841379 240  340 240   0
440      -792157 240  270 240   0
441       696552 240  340 240   0
442      -541176 240  270 240   0
443       475862 240  340 240   0
444      -290196 240  270 240   0
445       255172 240  340 240   0
446     -39215.7 240  270 240   0
447      34482.8 240  340 240   0
448       211765 240  270 240   0
449      -186207 240  340 240   0
450       462745 240  270 240   0
451      -406897 240  340 240   0
452       713725 240  270 240   0
453      -627586 240  340 240   0
454       964706 240  270 240   0
455      -848276 240  340 240   0
456      -784314 240  270 240   0
457       689655 240  340 240   0
458      -533333 240  270 240   0
459       468966 240  340 240   0
460      -282353 240  270 240   0
461       248276 240  340 240   0
462     -31372.5 240  270 240   0
463      27586.2 240  340 240   0
464       219608 240  270 240   0
465      -193103 240  340 240   0
466       470588 240  270 240   0
467      -413793 240  340 240   0
468       721569 240  270 240   0
469      -634483 240  340 240   0
470       972549 240  270 240   0
471      -855172 240  340 240   0
472      -776471 240  270 240   0
473       682759 240  340 240   0
474      -525490 240  270 240   0
475       462069 240  340 240   0
476      -274510 240  270 240   0
477       241379 240  340 240   0
478     -23529.4 240  270 240   0
479      20689.6 240  340 240   0
480       227451 240  270 240   0
481      -200000 240  340 240   0
482       478431 240  270 240   0
483      -420690 240  340 240   0
484       729412 240  270 240   0
485      -641379 240  340 240   0
486       980392 240  270 240   0
487      -862069 240  340 240   0
488      -768627 240  270 240   0
489       675862 240  340 240   0
490      -517647 240  270 240   0
491       455172 240  340 240   0
492      -266667 240  270 240   0
493       234483 240  340 240   0
494     -15686.3 240  270 240   0
495      13793.1 240  340 240   0
496       235294 240  270 240   0
497      -206897 240  340 240   0
498       486275 240  270 240   0
499      -427586 240  340 240   0
500       737255 240  270 240   0
501      -648276 240  340 240   0
502       988235 240  270 240   0
503      -868966 240  340 240   0
504      -760784 240  270 240   0
505       668966 240  340 240   0
506      -509804 240  270 240   0
507       448276 240  340 240   0
508      -258824 240  270 240   0
509       227586 240  340 240   0
510     -7843.14 240  270 240   0
511      6896.56 240  340 240   0
512       243137 240  270 240   0
513      -213793 240  340 240   0
514       494118 240  270 240   0
515      -434483 240  340 240   0
516       745098 240  270 240   0
517      -655172 240  340 240   0
518       996078 240  270 240   0
519      -875862 240  340 240   0

# Format of ADC events:
# id num dwell delay freq phase
# ..  ..    ns    us   Hz   rad
[ADC]
1 512 1953 150 0 0

# Format of extension lists:
# id type ref next_id
# next_id of 0 terminates the list
# Extension list is followed by extension specifications
[EXTENSIONS]
1 1 9 0
2 1 8 1
3 1 7 2
4 1 6 3
5 1 5 4
6 1 4 5
7 1 3 6
8 1 2 7
9 1 1 8
10 1 10 0
11 1 11 0
12 1 12 0
13 1 13 0
14 1 14 0
15 1 15 0
16 1 16 0
17 1 17 0
18 1 1 17
19 1 18 0
20 1 1 19
21 1 19 0
22 1 1 21
23 1 20 0
24 1 1 23
25 1 21 0
26 1 1 25
27 1 22 0
28 1 1 27
29 1 23 0
30 1 1 29
31 1 24 0
32 1 1 31
33 1 25 0
34 1 1 33
35 1 26 0
36 1 1 35
37 2 1 0
38 1 3 37
39 1 27 38
40 1 28 0
41 1 29 0
42 1 30 0
43 1 31 0
44 1 32 0
45 1 33 0
46 1 34 0
47 1 27 17
48 1 27 19
49 1 27 21
50 1 27 23
51 1 27 25
52 1 27 27
53 1 27 29
54 1 27 31
55 1 27 33
56 1 27 35
57 1 35 38
58 1 36 0
59 1 37 0
60 1 38 0
61 1 39 0
62 1 40 0
63 1 41 0
64 1 42 0
65 1 35 17
66 1 35 19
67 1 35 21
68 1 35 23
69 1 35 25
70 1 35 27
71 1 35 29
72 1 35 31
73 1 35 33
74 1 35 35
75 1 43 38
76 1 44 0
77 1 45 0
78 1 46 0
79 1 47 0
80 1 48 0
81 1 49 0
82 1 50 0
83 1 43 17
84 1 43 19
85 1 43 21
86 1 43 23
87 1 43 25
88 1 43 27
89 1 43 29
90 1 43 31
91 1 43 33
92 1 43 35
93 1 51 38
94 1 52 0
95 1 53 0
96 1 54 0
97 1 55 0
98 1 56 0
99 1 57 0
100 1 58 0
101 1 51 17
102 1 51 19
103 1 51 21
104 1 51 23
